   Temperature             B
   1.00000000       1.65003673E-08
   2.00000000       2.84624775E-07
   3.00000000       1.45514900E-06
   4.00000000       4.61112768E-06
   5.00000000       1.12687567E-05
   6.00000000       2.33774190E-05
   7.00000000       4.33196910E-05
   8.00000000       7.39113384E-05
   9.00000000       1.18401331E-04
   10.0000000       1.80471819E-04
   11.0000000       2.64238159E-04
   12.0000000       3.74248892E-04
   13.0000000       5.15485823E-04
   14.0000000       6.93363778E-04
   15.0000000       9.13730939E-04
   16.0000000       1.18286873E-03
   17.0000000       1.50749146E-03
   18.0000000       1.89474714E-03
   19.0000000       2.35221651E-03
   20.0000000       2.88791349E-03
   21.0000000       3.51028587E-03
   22.0000000       4.22821380E-03
   23.0000000       5.05101075E-03
   24.0000000       5.98842418E-03
   25.0000000       7.05063390E-03
   26.0000000       8.24825279E-03
   27.0000000       9.59232822E-03
   28.0000000       1.10943392E-02
   29.0000000       1.27661983E-02
   30.0000000       1.46202529E-02
   31.0000000       1.66692808E-02
   32.0000000       1.89264957E-02
   33.0000000       2.14055423E-02
   34.0000000       2.41204984E-02
   35.0000000       2.70858780E-02
   36.0000000       3.03166267E-02
   37.0000000       3.38281207E-02
   38.0000000       3.76361758E-02
   39.0000000       4.17570285E-02
   40.0000000       4.62073684E-02
   41.0000000       5.10042943E-02
   42.0000000       5.61653599E-02
   43.0000000       6.17085397E-02
   44.0000000       6.76522478E-02
   45.0000000       7.40153193E-02
   46.0000000       8.08170363E-02
   47.0000000       8.80771130E-02
   48.0000000       9.58156884E-02
   49.0000000      0.104053341    
   50.0000000      0.112811081    
   51.0000000      0.122110352    
   52.0000000      0.131973028    
   53.0000000      0.142421424    
   54.0000000      0.153478265    
   55.0000000      0.165166751    
   56.0000000      0.177510485    
   57.0000000      0.190533504    
   58.0000000      0.204260275    
   59.0000000      0.218715727    
   60.0000000      0.233925179    
   61.0000000      0.249914423    
   62.0000000      0.266709656    
   63.0000000      0.284337550    
   64.0000000      0.302825153    
   65.0000000      0.322199941    
   66.0000000      0.342489928    
   67.0000000      0.363723427    
   68.0000000      0.385929286    
   69.0000000      0.409136713    
   70.0000000      0.433375388    
   71.0000000      0.458675444    
   72.0000000      0.485067397    
   73.0000000      0.512582242    
   74.0000000      0.541251361    
   75.0000000      0.571106613    
   76.0000000      0.602180243    
   77.0000000      0.634504974    
   78.0000000      0.668113947    
   79.0000000      0.703040779    
   80.0000000      0.739319384    
   81.0000000      0.776984274    
   82.0000000      0.816070318    
   83.0000000      0.856612742    
   84.0000000      0.898647368    
   85.0000000      0.942210376    
   86.0000000      0.987338305    
   87.0000000       1.03406823    
   88.0000000       1.08243763    
   89.0000000       1.13248432    
   90.0000000       1.18424678    
   91.0000000       1.23776376    
   92.0000000       1.29307437    
   93.0000000       1.35021830    
   94.0000000       1.40923560    
   95.0000000       1.47016680    
   96.0000000       1.53305292    
   97.0000000       1.59793508    
   98.0000000       1.66485536    
   99.0000000       1.73385584    
   100.000000       1.80497921    
   101.000000       1.87826860    
   102.000000       1.95376766    
   103.000000       2.03152013    
   104.000000       2.11157036    
   105.000000       2.19396353    
   106.000000       2.27874470    
   107.000000       2.36595964    
   108.000000       2.45565438    
   109.000000       2.54787564    
   110.000000       2.64267015    
   111.000000       2.74008560    
   112.000000       2.84016991    
   113.000000       2.94297123    
   114.000000       3.04853821    
   115.000000       3.15692019    
   116.000000       3.26816654    
   117.000000       3.38232780    
   118.000000       3.49945378    
   119.000000       3.61959577    
   120.000000       3.74280524    
   121.000000       3.86913347    
   122.000000       3.99863315    
   123.000000       4.13135672    
   124.000000       4.26735687    
   125.000000       4.40668774    
   126.000000       4.54940319    
   127.000000       4.69555712    
   128.000000       4.84520483    
   129.000000       4.99840117    
   130.000000       5.15520144    
   131.000000       5.31566286    
   132.000000       5.47984123    
   133.000000       5.64779377    
   134.000000       5.81957722    
   135.000000       5.99525023    
   136.000000       6.17487097    
   137.000000       6.35849762    
   138.000000       6.54618979    
   139.000000       6.73800707    
   140.000000       6.93400908    
   141.000000       7.13425636    
   142.000000       7.33880997    
   143.000000       7.54773092    
   144.000000       7.76108122    
   145.000000       7.97892284    
   146.000000       8.20131874    
   147.000000       8.42833138    
   148.000000       8.66002464    
   149.000000       8.89646244    
   150.000000       9.13770866    
   151.000000       9.38382816    
   152.000000       9.63488674    
   153.000000       9.89094925    
   154.000000       10.1520824    
   155.000000       10.4183531    
   156.000000       10.6898260    
   157.000000       10.9665718    
   158.000000       11.2486553    
   159.000000       11.5361462    
   160.000000       11.8291130    
   161.000000       12.1276255    
   162.000000       12.4317513    
   163.000000       12.7415619    
   164.000000       13.0571280    
   165.000000       13.3785191    
   166.000000       13.7058067    
   167.000000       14.0390635    
   168.000000       14.3783617    
   169.000000       14.7237720    
   170.000000       15.0753689    
   171.000000       15.4332256    
   172.000000       15.7974157    
   173.000000       16.1680145    
   174.000000       16.5450954    
   175.000000       16.9287338    
   176.000000       17.3190060    
   177.000000       17.7159863    
   178.000000       18.1197529    
   179.000000       18.5303822    
   180.000000       18.9479523    
   181.000000       19.3725395    
   182.000000       19.8042240    
   183.000000       20.2430820    
   184.000000       20.6891937    
   185.000000       21.1426392    
   186.000000       21.6034966    
   187.000000       22.0718479    
   188.000000       22.5477734    
   189.000000       23.0313549    
   190.000000       23.5226727    
   191.000000       24.0218105    
   192.000000       24.5288506    
   193.000000       25.0438728    
   194.000000       25.5669651    
   195.000000       26.0982094    
   196.000000       26.6376896    
   197.000000       27.1854916    
   198.000000       27.7416973    
   199.000000       28.3063965    
   200.000000       28.8796711    
   201.000000       29.4616108    
   202.000000       30.0523014    
   203.000000       30.6518307    
   204.000000       31.2602863    
   205.000000       31.8777542    
   206.000000       32.5043259    
   207.000000       33.1400871    
   208.000000       33.7851295    
   209.000000       34.4395447    
   210.000000       35.1034203    
   211.000000       35.7768478    
   212.000000       36.4599190    
   213.000000       37.1527252    
   214.000000       37.8553581    
   215.000000       38.5679092    
   216.000000       39.2904739    
   217.000000       40.0231438    
   218.000000       40.7660141    
   219.000000       41.5191765    
   220.000000       42.2827263    
   221.000000       43.0567627    
   222.000000       43.8413773    
   223.000000       44.6366653    
   224.000000       45.4427223    
   225.000000       46.2596512    
   226.000000       47.0875435    
   227.000000       47.9264984    
   228.000000       48.7766151    
   229.000000       49.6379929    
   230.000000       50.5107269    
   231.000000       51.3949203    
   232.000000       52.2906723    
   233.000000       53.1980782    
   234.000000       54.1172485    
   235.000000       55.0482750    
   236.000000       55.9912643    
   237.000000       56.9463196    
   238.000000       57.9135399    
   239.000000       58.8930283    
   240.000000       59.8848877    
   241.000000       60.8892250    
   242.000000       61.9061432    
   243.000000       62.9357452    
   244.000000       63.9781342    
   245.000000       65.0334244    
   246.000000       66.1017151    
   247.000000       67.1831055    
   248.000000       68.2777176    
   249.000000       69.3856506    
   250.000000       70.5070114    
   251.000000       71.6419144    
   252.000000       72.7904587    
   253.000000       73.9527588    
   254.000000       75.1289215    
   255.000000       76.3190536    
   256.000000       77.5232773    
   257.000000       78.7416992    
   258.000000       79.9744186    
   259.000000       81.2215576    
   260.000000       82.4832306    
   261.000000       83.7595444    
   262.000000       85.0506134    
   263.000000       86.3565445    
   264.000000       87.6774673    
   265.000000       89.0134811    
   266.000000       90.3647003    
   267.000000       91.7312546    
   268.000000       93.1132431    
   269.000000       94.5107880    
   270.000000       95.9240112    
   271.000000       97.3530197    
   272.000000       98.7979431    
   273.000000       100.258881    
   274.000000       101.735970    
   275.000000       103.229317    
   276.000000       104.739044    
   277.000000       106.265274    
   278.000000       107.808113    
   279.000000       109.367706    
   280.000000       110.944145    
   281.000000       112.537575    
   282.000000       114.148109    
   283.000000       115.775864    
   284.000000       117.420959    
   285.000000       119.083534    
   286.000000       120.763702    
   287.000000       122.461578    
   288.000000       124.177307    
   289.000000       125.910995    
   290.000000       127.662773    
   291.000000       129.432770    
   292.000000       131.221100    
   293.000000       133.027908    
   294.000000       134.853302    
   295.000000       136.697433    
   296.000000       138.560394    
   297.000000       140.442352    
   298.000000       142.343399    
   299.000000       144.263687    
   300.000000       146.203339    
   301.000000       148.162491    
   302.000000       150.141251    
   303.000000       152.139786    
   304.000000       154.158188    
   305.000000       156.196625    
   306.000000       158.255203    
   307.000000       160.334061    
   308.000000       162.433334    
   309.000000       164.553146    
   310.000000       166.693649    
   311.000000       168.854965    
   312.000000       171.037231    
   313.000000       173.240585    
   314.000000       175.465149    
   315.000000       177.711075    
   316.000000       179.978485    
   317.000000       182.267532    
   318.000000       184.578354    
   319.000000       186.911057    
   320.000000       189.265823    
   321.000000       191.642761    
   322.000000       194.042007    
   323.000000       196.463715    
   324.000000       198.908035    
   325.000000       201.375076    
   326.000000       203.865005    
   327.000000       206.377945    
   328.000000       208.914047    
   329.000000       211.473465    
   330.000000       214.056305    
   331.000000       216.662750    
   332.000000       219.292923    
   333.000000       221.946960    
   334.000000       224.625031    
   335.000000       227.327255    
   336.000000       230.053787    
   337.000000       232.804779    
   338.000000       235.580353    
   339.000000       238.380692    
   340.000000       241.205917    
   341.000000       244.056168    
   342.000000       246.931625    
   343.000000       249.832397    
   344.000000       252.758667    
   345.000000       255.710556    
   346.000000       258.688232    
   347.000000       261.691833    
   348.000000       264.721527    
   349.000000       267.777435    
   350.000000       270.859741    
   351.000000       273.968567    
   352.000000       277.104095    
   353.000000       280.266449    
   354.000000       283.455780    
   355.000000       286.672272    
   356.000000       289.916046    
   357.000000       293.187286    
   358.000000       296.486145    
   359.000000       299.812744    
   360.000000       303.167236    
   361.000000       306.549835    
   362.000000       309.960663    
   363.000000       313.399841    
   364.000000       316.867584    
   365.000000       320.364014    
   366.000000       323.889313    
   367.000000       327.443634    
   368.000000       331.027100    
   369.000000       334.639923    
   370.000000       338.282227    
   371.000000       341.954193    
   372.000000       345.655945    
   373.000000       349.387695    
   374.000000       353.149567    
   375.000000       356.941742    
   376.000000       360.764374    
   377.000000       364.617645    
   378.000000       368.501678    
   379.000000       372.416687    
   380.000000       376.362762    
   381.000000       380.340149    
   382.000000       384.348969    
   383.000000       388.389404    
   384.000000       392.461609    
   385.000000       396.565735    
   386.000000       400.701996    
   387.000000       404.870514    
   388.000000       409.071472    
   389.000000       413.305023    
   390.000000       417.571350    
   391.000000       421.870636    
   392.000000       426.203033    
   393.000000       430.568726    
   394.000000       434.967865    
   395.000000       439.400604    
   396.000000       443.867157    
   397.000000       448.367676    
   398.000000       452.902344    
   399.000000       457.471313    
   400.000000       462.074768    
   401.000000       466.712860    
   402.000000       471.385803    
   403.000000       476.093719    
   404.000000       480.836853    
   405.000000       485.615326    
   406.000000       490.429291    
   407.000000       495.278992    
   408.000000       500.164581    
   409.000000       505.086212    
   410.000000       510.044067    
   411.000000       515.038330    
   412.000000       520.069214    
   413.000000       525.136841    
   414.000000       530.241394    
   415.000000       535.383118    
   416.000000       540.562134    
   417.000000       545.778564    
   418.000000       551.032715    
   419.000000       556.324707    
   420.000000       561.654785    
   421.000000       567.023010    
   422.000000       572.429626    
   423.000000       577.874817    
   424.000000       583.358765    
   425.000000       588.881592    
   426.000000       594.443604    
   427.000000       600.044922    
   428.000000       605.685730    
   429.000000       611.366211    
   430.000000       617.086609    
   431.000000       622.846985    
   432.000000       628.647583    
   433.000000       634.488647    
   434.000000       640.370300    
   435.000000       646.292786    
   436.000000       652.256226    
   437.000000       658.260864    
   438.000000       664.306824    
   439.000000       670.394348    
   440.000000       676.523682    
   441.000000       682.694885    
   442.000000       688.908203    
   443.000000       695.163879    
   444.000000       701.462036    
   445.000000       707.802856    
   446.000000       714.186646    
   447.000000       720.613464    
   448.000000       727.083557    
   449.000000       733.597168    
   450.000000       740.154419    
   451.000000       746.755554    
   452.000000       753.400696    
   453.000000       760.090088    
   454.000000       766.823975    
   455.000000       773.602478    
   456.000000       780.425842    
   457.000000       787.294250    
   458.000000       794.207886    
   459.000000       801.166931    
   460.000000       808.171631    
   461.000000       815.222168    
   462.000000       822.318726    
   463.000000       829.461548    
   464.000000       836.650757    
   465.000000       843.886597    
   466.000000       851.169312    
   467.000000       858.499023    
   468.000000       865.875977    
   469.000000       873.300354    
   470.000000       880.772400    
   471.000000       888.292297    
   472.000000       895.860291    
   473.000000       903.476440    
   474.000000       911.141113    
   475.000000       918.854431    
   476.000000       926.616638    
   477.000000       934.427917    
   478.000000       942.288452    
   479.000000       950.198486    
   480.000000       958.158203    
   481.000000       966.167847    
   482.000000       974.227600    
   483.000000       982.337708    
   484.000000       990.498291    
   485.000000       998.709595    
   486.000000       1006.97192    
   487.000000       1015.28534    
   488.000000       1023.65021    
   489.000000       1032.06653    
   490.000000       1040.53479    
   491.000000       1049.05493    
   492.000000       1057.62744    
   493.000000       1066.25220    
   494.000000       1074.92969    
   495.000000       1083.66003    
   496.000000       1092.44348    
   497.000000       1101.28015    
   498.000000       1110.17041    
   499.000000       1119.11438    
   500.000000       1128.11218    
   501.000000       1137.16418    
   502.000000       1146.27063    
   503.000000       1155.43152    
   504.000000       1164.64734    
   505.000000       1173.91809    
   506.000000       1183.24414    
   507.000000       1192.62561    
   508.000000       1202.06274    
   509.000000       1211.55579    
   510.000000       1221.10498    
   511.000000       1230.71045    
   512.000000       1240.37244    
   513.000000       1250.09131    
   514.000000       1259.86719    
   515.000000       1269.70020    
   516.000000       1279.59070    
   517.000000       1289.53894    
   518.000000       1299.54504    
   519.000000       1309.60913    
   520.000000       1319.73169    
   521.000000       1329.91284    
   522.000000       1340.15271    
   523.000000       1350.45166    
   524.000000       1360.80981    
   525.000000       1371.22742    
   526.000000       1381.70471    
   527.000000       1392.24207    
   528.000000       1402.83948    
   529.000000       1413.49719    
   530.000000       1424.21570    
   531.000000       1434.99487    
   532.000000       1445.83521    
   533.000000       1456.73694    
   534.000000       1467.70007    
   535.000000       1478.72498    
   536.000000       1489.81189    
   537.000000       1500.96106    
   538.000000       1512.17261    
   539.000000       1523.44702    
   540.000000       1534.78418    
   541.000000       1546.18457    
   542.000000       1557.64832    
   543.000000       1569.17578    
   544.000000       1580.76709    
   545.000000       1592.42249    
   546.000000       1604.14209    
   547.000000       1615.92639    
   548.000000       1627.77551    
   549.000000       1639.68970    
   550.000000       1651.66907    
   551.000000       1663.71399    
   552.000000       1675.82471    
   553.000000       1688.00146    
   554.000000       1700.24438    
   555.000000       1712.55371    
   556.000000       1724.92993    
   557.000000       1737.37292    
   558.000000       1749.88330    
   559.000000       1762.46094    
   560.000000       1775.10645    
   561.000000       1787.81970    
   562.000000       1800.60120    
   563.000000       1813.45117    
   564.000000       1826.36975    
   565.000000       1839.35718    
   566.000000       1852.41382    
   567.000000       1865.53979    
   568.000000       1878.73547    
   569.000000       1892.00098    
   570.000000       1905.33655    
