   Temperature           BIR            BW1               BW2             BUV             BVIS1             BVIS2
   1.00000000       1.64997687E-08   0.00000000       0.00000000       0.00000000       0.00000000       0.00000000    
   2.00000000       2.84615084E-07   0.00000000       0.00000000       0.00000000       0.00000000       0.00000000    
   3.00000000       1.45509989E-06   0.00000000       0.00000000       0.00000000       0.00000000       0.00000000    
   4.00000000       4.61097216E-06   0.00000000       0.00000000       0.00000000       0.00000000       0.00000000    
   5.00000000       1.12683774E-05   0.00000000       0.00000000       0.00000000       0.00000000       0.00000000    
   6.00000000       2.33766332E-05   0.00000000       0.00000000       0.00000000       0.00000000       0.00000000    
   7.00000000       4.33182358E-05   0.00000000       1.68155816E-44   0.00000000       0.00000000       0.00000000    
   8.00000000       7.39088573E-05   0.00000000       7.56751758E-39   0.00000000       0.00000000       0.00000000    
   9.00000000       1.18397351E-04   0.00000000       1.86733063E-34   0.00000000       0.00000000       0.00000000    
   10.0000000       1.80465751E-04   0.00000000       6.16935264E-31   0.00000000       0.00000000       0.00000000    
   11.0000000       2.64229282E-04   0.00000000       4.71766362E-28   0.00000000       0.00000000       0.00000000    
   12.0000000       3.74236319E-04   0.00000000       1.20291822E-25   0.00000000       0.00000000       0.00000000    
   13.0000000       5.15468477E-04   0.00000000       1.31699871E-23   0.00000000       0.00000000       0.00000000    
   14.0000000       6.93340495E-04   0.00000000       7.41741903E-22   0.00000000       0.00000000       0.00000000    
   15.0000000       9.13700263E-04   0.00000000       2.45366779E-20   0.00000000       0.00000000       0.00000000    
   16.0000000       1.18282891E-03   0.00000000       5.26595431E-19   0.00000000       0.00000000       0.00000000    
   17.0000000       1.50744081E-03   0.00000000       7.91206114E-18   0.00000000       0.00000000       0.00000000    
   18.0000000       1.89468346E-03   0.00000000       8.83024965E-17   0.00000000       0.00000000       0.00000000    
   19.0000000       2.35213735E-03   0.00000000       7.67081349E-16   0.00000000       0.00000000       0.00000000    
   20.0000000       2.88781640E-03   0.00000000       5.38460666E-15   0.00000000       0.00000000       0.00000000    
   21.0000000       3.51016782E-03   0.00000000       3.14831847E-14   0.00000000       0.00000000       0.00000000    
   22.0000000       4.22807131E-03   0.00000000       1.57178903E-13   0.00000000       0.00000000       0.00000000    
   23.0000000       5.05084125E-03   0.00000000       6.83926060E-13   0.00000000       0.00000000       0.00000000    
   24.0000000       5.98822301E-03   0.00000000       2.63845911E-12   0.00000000       0.00000000       0.00000000    
   25.0000000       7.05039687E-03   0.00000000       9.15502309E-12   0.00000000       0.00000000       0.00000000    
   26.0000000       8.24797619E-03   0.00000000       2.89214572E-11   0.00000000       0.00000000       0.00000000    
   27.0000000       9.59200598E-03   0.00000000       8.40495798E-11   0.00000000       0.00000000       0.00000000    
   28.0000000       1.10939657E-02   0.00000000       2.26708111E-10   0.00000000       0.00000000       0.00000000    
   29.0000000       1.27657689E-02   9.80908925E-45   5.71933001E-10   0.00000000       0.00000000       0.00000000    
   30.0000000       1.46197602E-02   4.09179152E-43   1.35849321E-09   0.00000000       0.00000000       0.00000000    
   31.0000000       1.66687183E-02   1.27265927E-41   3.05576719E-09   0.00000000       0.00000000       0.00000000    
   32.0000000       1.89258531E-02   3.19658600E-40   6.54238619E-09   0.00000000       0.00000000       0.00000000    
   33.0000000       2.14048084E-02   6.61074321E-39   1.33918894E-08   0.00000000       0.00000000       0.00000000    
   34.0000000       2.41196621E-02   1.14509245E-37   2.63115716E-08   0.00000000       0.00000000       0.00000000    
   35.0000000       2.70849187E-02   1.68672050E-36   4.97927175E-08   0.00000000       0.00000000       0.00000000    
   36.0000000       3.03155165E-02   2.14147764E-35   9.10429137E-08   0.00000000       0.00000000       0.00000000    
   37.0000000       3.38268243E-02   2.37178209E-34   1.61283424E-07   0.00000000       0.00000000       0.00000000    
   38.0000000       3.76346335E-02   2.31633072E-33   2.77506189E-07   0.00000000       0.00000000       0.00000000    
   39.0000000       4.17551622E-02   2.01412185E-32   4.64794482E-07   0.00000000       0.00000000       0.00000000    
   40.0000000       4.62050550E-02   1.57291782E-31   7.59319505E-07   0.00000000       0.00000000       0.00000000    
   41.0000000       5.10013700E-02   1.11190876E-30   1.21212872E-06   0.00000000       0.00000000       0.00000000    
   42.0000000       5.61615787E-02   7.16569996E-30   1.89384525E-06   0.00000000       0.00000000       0.00000000    
   43.0000000       6.17035665E-02   4.23712562E-29   2.90039247E-06   0.00000000       0.00000000       0.00000000    
   44.0000000       6.76456094E-02   2.31233264E-28   4.35985748E-06   0.00000000       0.00000000       0.00000000    
   45.0000000       7.40063936E-02   1.17088076E-27   6.44059219E-06   0.00000000       0.00000000       0.00000000    
   46.0000000       8.08049589E-02   5.52807992E-27   9.36064589E-06   0.00000000       0.00000000       0.00000000    
   47.0000000       8.80607590E-02   2.44439414E-26   1.33985995E-05   0.00000000       0.00000000       0.00000000    
   48.0000000       9.57935676E-02   1.01643199E-25   1.89058683E-05   0.00000000       0.00000000       0.00000000    
   49.0000000      0.104023524       3.98956665E-25   2.63205056E-05   0.00000000       0.00000000       0.00000000    
   50.0000000      0.112771109       1.48324645E-24   3.61825296E-05   0.00000000       0.00000000       0.00000000    
   51.0000000      0.122057103       5.23990601E-24   4.91507853E-05   0.00000000       0.00000000       0.00000000    
   52.0000000      0.131902575       1.76413785E-23   6.60212900E-05   0.00000000       0.00000000       0.00000000    
   53.0000000      0.142328888       5.67571159E-23   8.77470884E-05   0.00000000       0.00000000       0.00000000    
   54.0000000      0.153357655       1.74936166E-22   1.15459457E-04   0.00000000       0.00000000       0.00000000    
   55.0000000      0.165010720       5.17754378E-22   1.50490494E-04   0.00000000       0.00000000       0.00000000    
   56.0000000      0.177310124       1.47466664E-21   1.94396926E-04   0.00000000       0.00000000       0.00000000    
   57.0000000      0.190278113       4.05009277E-21   2.48985045E-04   0.00000000       0.00000000       0.00000000    
   58.0000000      0.203937083       1.07461271E-20   3.16336693E-04   0.00000000       0.00000000       0.00000000    
   59.0000000      0.218309537       2.75939924E-20   3.98836157E-04   0.00000000       0.00000000       0.00000000    
   60.0000000      0.233418122       6.86849809E-20   4.99197748E-04   0.00000000       0.00000000       0.00000000    
   61.0000000      0.249285534       1.65980239E-19   6.20493956E-04   0.00000000       0.00000000       0.00000000    
   62.0000000      0.265934527       3.89958428E-19   7.66184414E-04   0.00000000       0.00000000       0.00000000    
   63.0000000      0.283387840       8.91924866E-19   9.40144702E-04   0.00000000       0.00000000       0.00000000    
   64.0000000      0.301668257       1.98852358E-18   1.14669581E-03   0.00000000       0.00000000       0.00000000    
   65.0000000      0.320798486       4.32649995E-18   1.39063317E-03   0.00000000       0.00000000       0.00000000    
   66.0000000      0.340801150       9.19657751E-18   1.67725619E-03   0.00000000       0.00000000       0.00000000    
   67.0000000      0.361698806       1.91183674E-17   2.01239693E-03   0.00000000       0.00000000       0.00000000    
   68.0000000      0.383513868       3.89076809E-17   2.40244856E-03   0.00000000       0.00000000       0.00000000    
   69.0000000      0.406268567       7.75854386E-17   2.85439449E-03   0.00000000       0.00000000       0.00000000    
   70.0000000      0.429984987       1.51727040E-16   3.37583432E-03   0.00000000       0.00000000       0.00000000    
   71.0000000      0.454684943       2.91232559E-16   3.97508033E-03   0.00000000       0.00000000       0.00000000    
   72.0000000      0.480390161       5.49095037E-16   4.66093374E-03   0.00000000       0.00000000       0.00000000    
   73.0000000      0.507121980       1.01766297E-15   5.44305658E-03   0.00000000       0.00000000       0.00000000    
   74.0000000      0.534901381       1.85528295E-15   6.33177860E-03   0.00000000       0.00000000       0.00000000    
   75.0000000      0.563749254       3.32928566E-15   7.33817462E-03   0.00000000       0.00000000       0.00000000    
   76.0000000      0.593685925       5.88432476E-15   8.47408269E-03   0.00000000       0.00000000       0.00000000    
   77.0000000      0.624731541       1.02495044E-14   9.75213014E-03   0.00000000       0.00000000       0.00000000    
   78.0000000      0.656905770       1.76040501E-14   1.11857485E-02   0.00000000       0.00000000       0.00000000    
   79.0000000      0.690227926       2.98302168E-14   1.27891954E-02   0.00000000       0.00000000       0.00000000    
   80.0000000      0.724716961       4.98945876E-14   1.45775713E-02   0.00000000       0.00000000       0.00000000    
   81.0000000      0.760391355       8.24160754E-14   1.65668353E-02   0.00000000       0.00000000       0.00000000    
   82.0000000      0.797269046       1.34502395E-13   1.87738221E-02   0.00000000       0.00000000       0.00000000    
   83.0000000      0.835367739       2.16968343E-13   2.12162491E-02   0.00000000       0.00000000       0.00000000    
   84.0000000      0.874704421       3.46091238E-13   2.39127427E-02   0.00000000       0.00000000       0.00000000    
   85.0000000      0.915295839       5.46114803E-13   2.68828329E-02   0.00000000       0.00000000       0.00000000    
   86.0000000      0.957158148       8.52785236E-13   3.01469751E-02   0.00000000       0.00000000       0.00000000    
   87.0000000       1.00030696       1.31829779E-12   3.37265544E-02   0.00000000       0.00000000       0.00000000    
   88.0000000       1.04475737       2.01815366E-12   3.76438946E-02   0.00000000       0.00000000       0.00000000    
   89.0000000       1.09052408       3.06058087E-12   4.19222638E-02   0.00000000       0.00000000       0.00000000    
   90.0000000       1.13762116       4.59936776E-12   4.65858765E-02   0.00000000       0.00000000       0.00000000    
   91.0000000       1.18606222       6.85120276E-12   5.16599044E-02   0.00000000       0.00000000       0.00000000    
   92.0000000       1.23586047       1.01189179E-11   5.71704768E-02   0.00000000       0.00000000       0.00000000    
   93.0000000       1.28702831       1.48224072E-11   6.31446838E-02   0.00000000       0.00000000       0.00000000    
   94.0000000       1.33957767       2.15394490E-11   6.96105659E-02   0.00000000       0.00000000       0.00000000    
   95.0000000       1.39352036       3.10592281E-11   7.65971318E-02   0.00000000       0.00000000       0.00000000    
   96.0000000       1.44886708       4.44520046E-11   8.41343403E-02   0.00000000       0.00000000       0.00000000    
   97.0000000       1.50562835       6.31592348E-11   9.22531262E-02   0.00000000       0.00000000       0.00000000    
   98.0000000       1.56381404       8.91093518E-11  0.100985356       0.00000000       0.00000000       0.00000000    
   99.0000000       1.62343371       1.24865604E-10  0.110363856       0.00000000       0.00000000       0.00000000    
   100.000000       1.68449616       1.73813713E-10  0.120422401       0.00000000       0.00000000       0.00000000    
   101.000000       1.74700987       2.40398618E-10  0.131195694       0.00000000       0.00000000       0.00000000    
   102.000000       1.81098258       3.30421468E-10  0.142719388       0.00000000       0.00000000       0.00000000    
   103.000000       1.87642169       4.51410381E-10  0.155030072       0.00000000       0.00000000       0.00000000    
   104.000000       1.94333434       6.13080142E-10  0.168165222       0.00000000       0.00000000       0.00000000    
   105.000000       2.01172662       8.27900470E-10  0.182163239       0.00000000       0.00000000       0.00000000    
   106.000000       2.08160472       1.11179321E-09  0.197063446       0.00000000       0.00000000       0.00000000    
   107.000000       2.15297413       1.48498580E-09  0.212906063       0.00000000       0.00000000       0.00000000    
   108.000000       2.22583985       1.97304861E-09  0.229732156       0.00000000       0.00000000       0.00000000    
   109.000000       2.30020618       2.60815192E-09  0.247583702       0.00000000       0.00000000       0.00000000    
   110.000000       2.37607789       3.43058204E-09  0.266503513       0.00000000       0.00000000       0.00000000    
   111.000000       2.45345831       4.49056081E-09  0.286535293       0.00000000       0.00000000       0.00000000    
   112.000000       2.53235102       5.85042104E-09  0.307723582       0.00000000       0.00000000       0.00000000    
   113.000000       2.61275864       7.58719931E-09  0.330113679       0.00000000       0.00000000       0.00000000    
   114.000000       2.69468403       9.79570469E-09  0.353751779       0.00000000       0.00000000       0.00000000    
   115.000000       2.77812934       1.25921540E-08  0.378684849       0.00000000       0.00000000       0.00000000    
   116.000000       2.86309624       1.61184417E-08  0.404960662       0.00000000       0.00000000       0.00000000    
   117.000000       2.94958639       2.05471551E-08  0.432627738       0.00000000       0.00000000       0.00000000    
   118.000000       3.03760076       2.60874256E-08  0.461735398       0.00000000       0.00000000       0.00000000    
   119.000000       3.12714052       3.29917533E-08  0.492333680       0.00000000       0.00000000       0.00000000    
   120.000000       3.21820593       4.15639327E-08  0.524473369       0.00000000       0.00000000       0.00000000    
   121.000000       3.31079745       5.21681933E-08  0.558205962       0.00000000       0.00000000       0.00000000    
   122.000000       3.40491509       6.52397816E-08  0.593583703       0.00000000       0.00000000       0.00000000    
   123.000000       3.50055838       8.12971024E-08  0.630659461       0.00000000       0.00000000       0.00000000    
   124.000000       3.59772682       1.00955631E-07  0.669486880       0.00000000       0.00000000       0.00000000    
   125.000000       3.69641972       1.24943853E-07  0.710120082       0.00000000       0.00000000       0.00000000    
   126.000000       3.79663610       1.54121338E-07  0.752614021       0.00000000       0.00000000       0.00000000    
   127.000000       3.89837289       1.89499445E-07  0.797026396       0.00000000       0.00000000       0.00000000    
   128.000000       4.00163221       2.32264583E-07  0.843409300       0.00000000       0.00000000       0.00000000    
   129.000000       4.10641146       2.83804638E-07  0.891821265       0.00000000       0.00000000       0.00000000    
   130.000000       4.21270847       3.45738812E-07  0.942319691       0.00000000       0.00000000       0.00000000    
   131.000000       4.32052135       4.19950936E-07  0.994962394       0.00000000       0.00000000       0.00000000    
   132.000000       4.42984867       5.08627238E-07   1.04980779       0.00000000       0.00000000       0.00000000    
   133.000000       4.54068851       6.14298187E-07   1.10691488       0.00000000       0.00000000       0.00000000    
   134.000000       4.65303802       7.39885536E-07   1.16634309       0.00000000       0.00000000       0.00000000    
   135.000000       4.76689577       8.88754471E-07   1.22815228       0.00000000       0.00000000       0.00000000    
   136.000000       4.88225937       1.06477194E-06   1.29240310       0.00000000       0.00000000       0.00000000    
   137.000000       4.99912643       1.27237081E-06   1.35915637       0.00000000       0.00000000       0.00000000    
   138.000000       5.11749506       1.51662130E-06   1.42847335       0.00000000       0.00000000       0.00000000    
   139.000000       5.23736286       1.80331006E-06   1.50041592       0.00000000       0.00000000       0.00000000    
   140.000000       5.35872746       2.13902649E-06   1.57504630       0.00000000       0.00000000       0.00000000    
   141.000000       5.48158693       2.53125813E-06   1.65242696       0.00000000       0.00000000       0.00000000    
   142.000000       5.60593891       2.98849659E-06   1.73262107       0.00000000       0.00000000       0.00000000    
   143.000000       5.73178196       3.52035090E-06   1.81569195       0.00000000       0.00000000       0.00000000    
   144.000000       5.85911322       4.13767430E-06   1.90170312       0.00000000       0.00000000       0.00000000    
   145.000000       5.98793125       4.85270084E-06   1.99071872       0.00000000       0.00000000       0.00000000    
   146.000000       6.11823416       5.67919506E-06   2.08280325       0.00000000       0.00000000       0.00000000    
   147.000000       6.25002050       6.63261471E-06   2.17802095       0.00000000       0.00000000       0.00000000    
   148.000000       6.38328886       7.73028751E-06   2.27643704       0.00000000       0.00000000       0.00000000    
   149.000000       6.51803732       8.99160204E-06   2.37811661       0.00000000       0.00000000       0.00000000    
   150.000000       6.65426588       1.04382152E-05   2.48312521       0.00000000       0.00000000       0.00000000    
   151.000000       6.79197264       1.20942768E-05   2.59152818       0.00000000       0.00000000       0.00000000    
   152.000000       6.93115711       1.39866715E-05   2.70339179       0.00000000       0.00000000       1.40129846E-45
   153.000000       7.07181931       1.61452790E-05   2.81878161       0.00000000       0.00000000       2.80259693E-45
   154.000000       7.21395874       1.86032539E-05   2.93776441       0.00000000       0.00000000       4.20389539E-45
   155.000000       7.35757494       2.13973253E-05   3.06040621       0.00000000       0.00000000       9.80908925E-45
   156.000000       7.50266886       2.45681240E-05   3.18677378       0.00000000       0.00000000       2.24207754E-44
   157.000000       7.64924097       2.81605262E-05   3.31693363       0.00000000       0.00000000       4.62428493E-44
   158.000000       7.79729223       3.22240194E-05   3.45095277       0.00000000       0.00000000       9.66895940E-44
   159.000000       7.94682407       3.68131077E-05   3.58889794       0.00000000       0.00000000       1.98984382E-43
   160.000000       8.09783745       4.19877251E-05   3.73083615       0.00000000       0.00000000       4.04975256E-43
   161.000000       8.25033569       4.78136863E-05   3.87683439       0.00000000       0.00000000       8.19759602E-43
   162.000000       8.40431976       5.43631613E-05   4.02695990       0.00000000       0.00000000       1.64372310E-42
   163.000000       8.55979252       6.17152036E-05   4.18127966       0.00000000       0.00000000       3.26782802E-42
   164.000000       8.71675873       6.99562588E-05   4.33986092       0.00000000       0.00000000       6.44457164E-42
   165.000000       8.87521935       7.91807543E-05   4.50277090       0.00000000       0.00000000       1.26046797E-41
