   Temperature           BIR            BW1               BW2             BUV             BVIS1             BVIS2
   1.00000000       1.65003673E-08   0.00000000       0.00000000       0.00000000       0.00000000       0.00000000    
   2.00000000       2.84624775E-07   0.00000000       0.00000000       0.00000000       0.00000000       0.00000000    
   3.00000000       1.45514900E-06   0.00000000       0.00000000       0.00000000       0.00000000       0.00000000    
   4.00000000       4.61112768E-06   0.00000000       0.00000000       0.00000000       0.00000000       0.00000000    
   5.00000000       1.12687567E-05   0.00000000       0.00000000       0.00000000       0.00000000       0.00000000    
   6.00000000       2.33774190E-05   0.00000000       0.00000000       0.00000000       0.00000000       0.00000000    
   7.00000000       4.33196910E-05   0.00000000       1.68155816E-44   0.00000000       0.00000000       0.00000000    
   8.00000000       7.39113384E-05   0.00000000       7.57577403E-39   0.00000000       0.00000000       0.00000000    
   9.00000000       1.18401331E-04   0.00000000       1.86914117E-34   0.00000000       0.00000000       0.00000000    
   10.0000000       1.80471819E-04   0.00000000       6.17473500E-31   0.00000000       0.00000000       0.00000000    
   11.0000000       2.64238159E-04   0.00000000       4.72140426E-28   0.00000000       0.00000000       0.00000000    
   12.0000000       3.74248892E-04   0.00000000       1.20379237E-25   0.00000000       0.00000000       0.00000000    
   13.0000000       5.15485823E-04   0.00000000       1.31788199E-23   0.00000000       0.00000000       0.00000000    
   14.0000000       6.93363778E-04   0.00000000       7.42203759E-22   0.00000000       0.00000000       0.00000000    
   15.0000000       9.13730939E-04   0.00000000       2.45509355E-20   0.00000000       0.00000000       0.00000000    
   16.0000000       1.18286873E-03   0.00000000       5.26882255E-19   0.00000000       0.00000000       0.00000000    
   17.0000000       1.50749146E-03   0.00000000       7.91611598E-18   0.00000000       0.00000000       0.00000000    
   18.0000000       1.89474714E-03   0.00000000       8.83452320E-17   0.00000000       0.00000000       0.00000000    
   19.0000000       2.35221651E-03   0.00000000       7.67433079E-16   0.00000000       0.00000000       0.00000000    
   20.0000000       2.88791349E-03   0.00000000       5.38695167E-15   0.00000000       0.00000000       0.00000000    
   21.0000000       3.51028587E-03   0.00000000       3.14962425E-14   0.00000000       0.00000000       0.00000000    
   22.0000000       4.22821380E-03   0.00000000       1.57241123E-13   0.00000000       0.00000000       0.00000000    
   23.0000000       5.05101075E-03   0.00000000       6.84185022E-13   0.00000000       0.00000000       0.00000000    
   24.0000000       5.98842418E-03   0.00000000       2.63941646E-12   0.00000000       0.00000000       0.00000000    
   25.0000000       7.05063390E-03   0.00000000       9.15821238E-12   0.00000000       0.00000000       0.00000000    
   26.0000000       8.24825279E-03   0.00000000       2.89311439E-11   0.00000000       0.00000000       0.00000000    
   27.0000000       9.59232822E-03   0.00000000       8.40766901E-11   0.00000000       0.00000000       0.00000000    
   28.0000000       1.10943392E-02   0.00000000       2.26778624E-10   0.00000000       0.00000000       0.00000000    
   29.0000000       1.27661983E-02   9.80908925E-45   5.72104752E-10   0.00000000       0.00000000       0.00000000    
   30.0000000       1.46202510E-02   4.09179152E-43   1.35888756E-09   0.00000000       0.00000000       0.00000000    
   31.0000000       1.66692771E-02   1.27420069E-41   3.05662562E-09   0.00000000       0.00000000       0.00000000    
   32.0000000       1.89264882E-02   3.20041155E-40   6.54416699E-09   0.00000000       0.00000000       0.00000000    
   33.0000000       2.14055274E-02   6.61843774E-39   1.33954243E-08   0.00000000       0.00000000       0.00000000    
   34.0000000       2.41204724E-02   1.14638613E-37   2.63183129E-08   0.00000000       0.00000000       0.00000000    
   35.0000000       2.70858295E-02   1.68857156E-36   4.98051129E-08   0.00000000       0.00000000       0.00000000    
   36.0000000       3.03165354E-02   2.14376219E-35   9.10649476E-08   0.00000000       0.00000000       0.00000000    
   37.0000000       3.38279605E-02   2.37424375E-34   1.61321410E-07   0.00000000       0.00000000       0.00000000    
   38.0000000       3.76358964E-02   2.31867142E-33   2.77569825E-07   0.00000000       0.00000000       0.00000000    
   39.0000000       4.17565666E-02   2.01610491E-32   4.64898392E-07   0.00000000       0.00000000       0.00000000    
   40.0000000       4.62066084E-02   1.57442775E-31   7.59485033E-07   0.00000000       0.00000000       0.00000000    
   41.0000000       5.10030836E-02   1.11295006E-30   1.21238656E-06   0.00000000       0.00000000       0.00000000    
   42.0000000       5.61634675E-02   7.17224963E-30   1.89423849E-06   0.00000000       0.00000000       0.00000000    
   43.0000000       6.17056414E-02   4.24090857E-29   2.90098092E-06   0.00000000       0.00000000       0.00000000    
   44.0000000       6.76478818E-02   2.31435005E-28   4.36072196E-06   0.00000000       0.00000000       0.00000000    
   45.0000000       7.40088746E-02   1.17187955E-27   6.44184183E-06   0.00000000       0.00000000       0.00000000    
   46.0000000       8.08076784E-02   5.53269252E-27   9.36242304E-06   0.00000000       0.00000000       0.00000000    
   47.0000000       8.80637169E-02   2.44639033E-26   1.34010897E-05   0.00000000       0.00000000       0.00000000    
   48.0000000       9.57967788E-02   1.01724470E-25   1.89093116E-05   0.00000000       0.00000000       0.00000000    
   49.0000000      0.104027018       3.99269128E-25   2.63252041E-05   0.00000000       0.00000000       0.00000000    
   50.0000000      0.112774894       1.48438487E-24   3.61888633E-05   0.00000000       0.00000000       0.00000000    
   51.0000000      0.122061193       5.24384874E-24   4.91592255E-05   0.00000000       0.00000000       0.00000000    
   52.0000000      0.131907001       1.76543962E-23   6.60324222E-05   0.00000000       0.00000000       0.00000000    
   53.0000000      0.142333657       5.67982061E-23   8.77616258E-05   0.00000000       0.00000000       0.00000000    
   54.0000000      0.153362796       1.75060465E-22   1.15478259E-04   0.00000000       0.00000000       0.00000000    
   55.0000000      0.165016249       5.18115563E-22   1.50514592E-04   0.00000000       0.00000000       0.00000000    
   56.0000000      0.177316055       1.47567699E-21   1.94427557E-04   0.00000000       0.00000000       0.00000000    
   57.0000000      0.190284476       4.05281867E-21   2.49023666E-04   0.00000000       0.00000000       0.00000000    
   58.0000000      0.203943893       1.07532349E-20   3.16385092E-04   0.00000000       0.00000000       0.00000000    
   59.0000000      0.218316823       2.76119351E-20   3.98896344E-04   0.00000000       0.00000000       0.00000000    
   60.0000000      0.233425915       6.87288926E-20   4.99272079E-04   0.00000000       0.00000000       0.00000000    
   61.0000000      0.249293849       1.66084606E-19   6.20585284E-04   0.00000000       0.00000000       0.00000000    
   62.0000000      0.265943378       3.90199681E-19   7.66295998E-04   0.00000000       0.00000000       0.00000000    
   63.0000000      0.283397257       8.92467910E-19   9.40280326E-04   0.00000000       0.00000000       0.00000000    
   64.0000000      0.301678270       1.98971534E-18   1.14685984E-03   0.00000000       0.00000000       0.00000000    
   65.0000000      0.320809126       4.32905263E-18   1.39083073E-03   0.00000000       0.00000000       0.00000000    
   66.0000000      0.340812415       9.20192109E-18   1.67749322E-03   0.00000000       0.00000000       0.00000000    
   67.0000000      0.361710757       1.91293094E-17   2.01268005E-03   0.00000000       0.00000000       0.00000000    
   68.0000000      0.383526474       3.89296210E-17   2.40278617E-03   0.00000000       0.00000000       0.00000000    
   69.0000000      0.406281918       7.76285579E-17   2.85479520E-03   0.00000000       0.00000000       0.00000000    
   70.0000000      0.429999083       1.51810155E-16   3.37630929E-03   0.00000000       0.00000000       0.00000000    
   71.0000000      0.454699874       2.91389842E-16   3.97557393E-03   0.00000000       0.00000000       0.00000000    
   72.0000000      0.480405897       5.49387475E-16   4.66150558E-03   0.00000000       0.00000000       0.00000000    
   73.0000000      0.507138491       1.01819745E-15   5.44371502E-03   0.00000000       0.00000000       0.00000000    
   74.0000000      0.534918845       1.85624412E-15   6.33253483E-03   0.00000000       0.00000000       0.00000000    
   75.0000000      0.563767552       3.33098756E-15   7.33903982E-03   0.00000000       0.00000000       0.00000000    
   76.0000000      0.593705177       5.88729318E-15   8.47506989E-03   0.00000000       0.00000000       0.00000000    
   77.0000000      0.624751747       1.02546069E-14   9.75325145E-03   0.00000000       0.00000000       0.00000000    
   78.0000000      0.656926930       1.76127017E-14   1.11870188E-02   0.00000000       0.00000000       0.00000000    
   79.0000000      0.690250158       2.98446909E-14   1.27906306E-02   0.00000000       0.00000000       0.00000000    
   80.0000000      0.724740207       4.99184942E-14   1.45791881E-02   0.00000000       0.00000000       0.00000000    
   81.0000000      0.760415614       8.24550728E-14   1.65686514E-02   0.00000000       0.00000000       0.00000000    
   82.0000000      0.797294438       1.34565265E-13   1.87758561E-02   0.00000000       0.00000000       0.00000000    
   83.0000000      0.835394204       2.17068537E-13   2.12185234E-02   0.00000000       0.00000000       0.00000000    
   84.0000000      0.874732077       3.46249152E-13   2.39152759E-02   0.00000000       0.00000000       0.00000000    
   85.0000000      0.915324688       5.46361079E-13   2.68856492E-02   0.00000000       0.00000000       0.00000000    
   86.0000000      0.957188189       8.53165303E-13   3.01500987E-02   0.00000000       0.00000000       0.00000000    
   87.0000000       1.00033820       1.31887860E-12   3.37300114E-02   0.00000000       0.00000000       0.00000000    
   88.0000000       1.04478991       2.01903273E-12   3.76477130E-02   0.00000000       0.00000000       0.00000000    
   89.0000000       1.09055793       3.06189882E-12   4.19264697E-02   0.00000000       0.00000000       0.00000000    
   90.0000000       1.13765633       4.60132626E-12   4.65905033E-02   0.00000000       0.00000000       0.00000000    
   91.0000000       1.18609881       6.85408804E-12   5.16649857E-02   0.00000000       0.00000000       0.00000000    
   92.0000000       1.23589838       1.01231332E-11   5.71760461E-02   0.00000000       0.00000000       0.00000000    
   93.0000000       1.28706753       1.48285152E-11   6.31507710E-02   0.00000000       0.00000000       0.00000000    
   94.0000000       1.33961844       2.15482302E-11   6.96172118E-02   0.00000000       0.00000000       0.00000000    
   95.0000000       1.39356244       3.10717563E-11   7.66043738E-02   0.00000000       0.00000000       0.00000000    
   96.0000000       1.44891071       4.44697473E-11   8.41422230E-02   0.00000000       0.00000000       0.00000000    
   97.0000000       1.50567341       6.31841870E-11   9.22616869E-02   0.00000000       0.00000000       0.00000000    
   98.0000000       1.56386077       8.91441920E-11  0.100994639       0.00000000       0.00000000       0.00000000    
   99.0000000       1.62348199       1.24913940E-10  0.110373907       0.00000000       0.00000000       0.00000000    
   100.000000       1.68454599       1.73880327E-10  0.120433271       0.00000000       0.00000000       0.00000000    
   101.000000       1.74706125       2.40489823E-10  0.131207436       0.00000000       0.00000000       0.00000000    
   102.000000       1.81103551       3.30545619E-10  0.142732054       0.00000000       0.00000000       0.00000000    
   103.000000       1.87647641       4.51578303E-10  0.155043706       0.00000000       0.00000000       0.00000000    
   104.000000       1.94339061       6.13306017E-10  0.168179885       0.00000000       0.00000000       0.00000000    
   105.000000       2.01178455       8.28202562E-10  0.182179004       0.00000000       0.00000000       0.00000000    
   106.000000       2.08166432       1.11219511E-09  0.197080374       0.00000000       0.00000000       0.00000000    
   107.000000       2.15303540       1.48551760E-09  0.212924197       0.00000000       0.00000000       0.00000000    
   108.000000       2.22590280       1.97374850E-09  0.229751572       0.00000000       0.00000000       0.00000000    
   109.000000       2.30027103       2.60906874E-09  0.247604460       0.00000000       0.00000000       0.00000000    
   110.000000       2.37614441       3.43177686E-09  0.266525716       0.00000000       0.00000000       0.00000000    
   111.000000       2.45352674       4.49211068E-09  0.286558986       0.00000000       0.00000000       0.00000000    
   112.000000       2.53242111       5.85242255E-09  0.307748824       0.00000000       0.00000000       0.00000000    
   113.000000       2.61283064       7.58977148E-09  0.330140591       0.00000000       0.00000000       0.00000000    
   114.000000       2.69475770       9.79899717E-09  0.353780419       0.00000000       0.00000000       0.00000000    
   115.000000       2.77820492       1.25963489E-08  0.378715307       0.00000000       0.00000000       0.00000000    
   116.000000       2.86317372       1.61237654E-08  0.404993027       0.00000000       0.00000000       0.00000000    
   117.000000       2.94966555       2.05538839E-08  0.432662100       0.00000000       0.00000000       0.00000000    
   118.000000       3.03768206       2.60958952E-08  0.461771846       0.00000000       0.00000000       0.00000000    
   119.000000       3.12722349       3.30023759E-08  0.492372334       0.00000000       0.00000000       0.00000000    
   120.000000       3.21829081       4.15772021E-08  0.524514318       0.00000000       0.00000000       0.00000000    
   121.000000       3.31088424       5.21847099E-08  0.558249354       0.00000000       0.00000000       0.00000000    
   122.000000       3.40500355       6.52602665E-08  0.593629599       0.00000000       0.00000000       0.00000000    
   123.000000       3.50064850       8.13224190E-08  0.630708039       0.00000000       0.00000000       0.00000000    
   124.000000       3.59781885       1.00986824E-07  0.669538140       0.00000000       0.00000000       0.00000000    
   125.000000       3.69651365       1.24982137E-07  0.710174263       0.00000000       0.00000000       0.00000000    
   126.000000       3.79673171       1.54168205E-07  0.752671242       0.00000000       0.00000000       0.00000000    
   127.000000       3.89847231       1.89556616E-07  0.797084570       0.00000000       0.00000000       0.00000000    
   128.000000       4.00173378       2.32334088E-07  0.843470454       0.00000000       0.00000000       0.00000000    
   129.000000       4.10651493       2.83888909E-07  0.891885519       0.00000000       0.00000000       0.00000000    
   130.000000       4.21281433       3.45840675E-07  0.942387104       0.00000000       0.00000000       0.00000000    
   131.000000       4.32062960       4.20073746E-07  0.995033145       0.00000000       0.00000000       0.00000000    
   132.000000       4.42995882       5.08774860E-07   1.04988194       0.00000000       0.00000000       0.00000000    
   133.000000       4.54080057       6.14475141E-07   1.10699260       0.00000000       0.00000000       0.00000000    
   134.000000       4.65315199       7.40097050E-07   1.16642439       0.00000000       0.00000000       0.00000000    
   135.000000       4.76701212       8.89006628E-07   1.22823739       0.00000000       0.00000000       0.00000000    
   136.000000       4.88237762       1.06507184E-06   1.29249215       0.00000000       0.00000000       0.00000000    
   137.000000       4.99924707       1.27272654E-06   1.35924935       0.00000000       0.00000000       0.00000000    
   138.000000       5.11761808       1.51704228E-06   1.42857051       0.00000000       0.00000000       0.00000000    
   139.000000       5.23748779       1.80380698E-06   1.50051737       0.00000000       0.00000000       0.00000000    
   140.000000       5.35885477       2.13961175E-06   1.57515216       0.00000000       0.00000000       0.00000000    
   141.000000       5.48171616       2.53194594E-06   1.65253747       0.00000000       0.00000000       0.00000000    
   142.000000       5.60607052       2.98930263E-06   1.73273623       0.00000000       0.00000000       0.00000000    
   143.000000       5.73191547       3.52129382E-06   1.81581187       0.00000000       0.00000000       0.00000000    
   144.000000       5.85924911       4.13877478E-06   1.90182805       0.00000000       0.00000000       0.00000000    
   145.000000       5.98806906       4.85398277E-06   1.99084878       0.00000000       0.00000000       0.00000000    
   146.000000       6.11837435       5.68068481E-06   2.08293843       0.00000000       0.00000000       0.00000000    
   147.000000       6.25016308       6.63434275E-06   2.17816162       0.00000000       0.00000000       0.00000000    
   148.000000       6.38343334       7.73228840E-06   2.27658319       0.00000000       0.00000000       0.00000000    
   149.000000       6.51818466       8.99391307E-06   2.37826848       0.00000000       0.00000000       0.00000000    
   150.000000       6.65441513       1.04408800E-05   2.48328280       0.00000000       0.00000000       0.00000000    
   151.000000       6.79212427       1.20973446E-05   2.59169197       0.00000000       0.00000000       0.00000000    
   152.000000       6.93131113       1.39901958E-05   2.70356154       0.00000000       0.00000000       1.40129846E-45
   153.000000       7.07197571       1.61493208E-05   2.81895781       0.00000000       0.00000000       2.80259693E-45
   154.000000       7.21411705       1.86078796E-05   2.93794703       0.00000000       0.00000000       4.20389539E-45
   155.000000       7.35773563       2.14026113E-05   3.06059551       0.00000000       0.00000000       9.80908925E-45
   156.000000       7.50283194       2.45741558E-05   3.18696976       0.00000000       0.00000000       2.24207754E-44
   157.000000       7.64940643       2.81673947E-05   3.31713676       0.00000000       0.00000000       4.62428493E-44
   158.000000       7.79746008       3.22318301E-05   3.45116282       0.00000000       0.00000000       9.66895940E-44
   159.000000       7.94699430       3.68219771E-05   3.58911538       0.00000000       0.00000000       1.98984382E-43
   160.000000       8.09801006       4.19977732E-05   3.73106098       0.00000000       0.00000000       4.04975256E-43
   161.000000       8.25051022       4.78250549E-05   3.87706685       0.00000000       0.00000000       8.21160900E-43
   162.000000       8.40449715       5.43760107E-05   4.02720022       0.00000000       0.00000000       1.64512440E-42
   163.000000       8.55997276       6.17296973E-05   4.18152809       0.00000000       0.00000000       3.27203191E-42
   164.000000       8.71693993       6.99725861E-05   4.34011745       0.00000000       0.00000000       6.45297943E-42
   165.000000       8.87540436       7.91991260E-05   4.50303602       0.00000000       0.00000000       1.26214953E-41
